v_0,energy
0.0,9.86960440108936
0.05025125628140704,9.94478231424639
0.10050251256281408,10.0195631083347
0.15075376884422112,10.0939480277393
0.20100502512562815,10.1679383289419
0.2512562814070352,10.2415352803195
0.30150753768844224,10.3147401619403
0.35175879396984927,10.3875542653592
0.4020100502512563,10.4599788934111
0.45226130653266333,10.5320153600028
0.5025125628140704,10.6036649899039
0.5527638190954774,10.6749291185360
0.6030150753768845,10.7458090917617
0.6532663316582915,10.8163062656712
0.7035175879396985,10.8864220063689
0.7537688442211056,10.9561576897591
0.8040201005025126,11.0255147013303
0.8542713567839196,11.0944944359394
0.9045226130653267,11.1630982975951
0.9547738693467337,11.2313276992404
1.0050251256281408,11.2991840625354
1.0552763819095479,11.3666688176388
1.105527638190955,11.4337834029903
1.155778894472362,11.5005292650915
1.206030150753769,11.5669078582878
1.256281407035176,11.6329206445492
1.306532663316583,11.6985690932528
1.35678391959799,11.7638546809630
1.407035175879397,11.8287788912146
1.4572864321608041,11.8933432142939
1.5075376884422111,11.9575491470216
1.5577889447236182,12.0213981925357
1.6080402010050252,12.0848918600746
1.6582914572864322,12.1480316647614
1.7085427135678393,12.2108191273882
1.7587939698492463,12.2732557742015
1.8090452261306533,12.3353431366889
1.8592964824120604,12.3970827513650
1.9095477386934674,12.4584761595606
1.9597989949748744,12.5195249072107
2.0100502512562817,12.5802305446449
2.0603015075376887,12.6405946263784
2.1105527638190957,12.7006187109043
2.1608040201005028,12.7603043604875
2.21105527638191,12.8196531409587
2.261306532663317,12.8786666215114
2.311557788944724,12.9373463744992
2.361809045226131,12.9956939752347
2.412060301507538,13.0537110017904
2.462311557788945,13.1113990348005
2.512562814070352,13.1687596572649
2.562814070351759,13.2257944543546
2.613065326633166,13.2825050132184
2.663316582914573,13.3388929227926
2.71356783919598,13.3949597736106
2.763819095477387,13.4507071576164
2.814070351758794,13.5061366679780
2.864321608040201,13.5612498989045
2.9145728643216082,13.6160484454637
2.9648241206030153,13.6705339034024
3.0150753768844223,13.7247078689687
3.0653266331658293,13.7785719387364
3.1155778894472363,13.8321277094306
3.1658291457286434,13.8853767777568
3.2160804020100504,13.9383207402310
3.2663316582914574,13.9909611930126
3.3165829145728645,14.0432997317387
3.3668341708542715,14.0953379513619
3.4170854271356785,14.1470774459889
3.4673366834170856,14.1985198087221
3.5175879396984926,14.2496666315034
3.5678391959798996,14.3005195049600
3.6180904522613067,14.3510800182530
3.6683417085427137,14.4013497589273
3.7185929648241207,14.4513303127652
3.7688442211055277,14.5010232636409
3.819095477386935,14.5504301933784
3.869346733668342,14.5995526816109
3.919597989949749,14.6483923056435
3.969849246231156,14.6969506403172
4.020100502512563,14.7452292578760
4.07035175879397,14.7932297278360
4.120603015075377,14.8409536168568
4.170854271356784,14.8884024886159
4.2211055276381915,14.9355779036842
4.2713567839195985,14.9824814194053
4.3216080402010055,15.0291145897761
4.371859296482413,15.0754789653299
4.42211055276382,15.1215760930227
4.472361809045227,15.1674075161205
4.522613065326634,15.2129747740898
4.572864321608041,15.2582794024905
4.623115577889448,15.3033229328706
4.673366834170855,15.3481068926634
4.723618090452262,15.3926328050871
4.773869346733669,15.4369021890466
4.824120603015076,15.4809165590379
4.874371859296483,15.5246774250538
4.92462311557789,15.5681862924931
4.974874371859297,15.6114446620713
5.025125628140704,15.6544540297333
5.075376884422111,15.6972158865690
5.125628140703518,15.7397317187308
5.175879396984925,15.7820030073530
5.226130653266332,15.8240312284734
5.276381909547739,15.8658178529576
5.326633165829146,15.9073643464250
5.376884422110553,15.9486721691763
5.42713567839196,15.9897427761246
5.477386934673367,16.0305776167269
5.527638190954774,16.0711781349188
5.577889447236181,16.1115457690507
5.628140703517588,16.1516819518261
5.678391959798995,16.1915881102418
5.728643216080402,16.2312656655304
5.778894472361809,16.2707160331042
5.8291457286432165,16.3099406225017
5.8793969849246235,16.3489408373350
5.9296482412060305,16.3877180752401
5.9798994974874375,16.4262737278284
6.030150753768845,16.4646091806404
6.080402010050252,16.5027258131007
6.130653266331659,16.5406249984754
6.180904522613066,16.5783081038308
6.231155778894473,16.6157764899939
6.28140703517588,16.6530315115149
6.331658291457287,16.6900745166308
6.381909547738694,16.7269068472314
6.432160804020101,16.7635298388262
6.482412060301508,16.7999448205132
6.532663316582915,16.8361531149498
6.582914572864322,16.8721560383243
6.633165829145729,16.9079549003295
6.683417085427136,16.9435510041379
6.733668341708543,16.9789456463779
6.78391959798995,17.0141401171120
6.834170854271357,17.0491356998162
6.884422110552764,17.0839336713607
6.934673366834171,17.1185353019920
6.984924623115578,17.1529418553166
7.035175879396985,17.1871545882859
7.085427135678392,17.2211747511823
7.135678391959799,17.2550035876068
7.185929648241206,17.2886423344676
7.236180904522613,17.3220922219702
7.28643216080402,17.3553544736086
7.336683417085427,17.3884303061578
7.386934673366834,17.4213209296673
7.437185929648241,17.4540275474557
7.4874371859296485,17.4865513561067
7.5376884422110555,17.5188935454661
7.5879396984924625,17.5510552986399
7.63819095477387,17.5830377919931
7.688442211055277,17.6148421951500
7.738693467336684,17.6464696709953
7.788944723618091,17.6779213756766
7.839195979899498,17.7091984586067
7.889447236180905,17.7403020624685
7.939698492462312,17.7712333232194
7.989949748743719,17.8019933700975
8.040201005025127,17.8325833256281
8.090452261306533,17.8630043056317
8.14070351758794,17.8932574192319
8.190954773869347,17.9233437688654
8.241206030150755,17.9532644502914
8.291457286432161,17.9830205526031
8.341708542713569,18.0126131582387
8.391959798994975,18.0420433429943
8.442211055276383,18.0713121760370
8.492462311557789,18.1004207199184
8.542713567839197,18.1293700305890
8.592964824120603,18.1581611574141
8.643216080402011,18.1867951431889
8.693467336683417,18.2152730241551
8.743718592964825,18.2435958300182
8.793969849246231,18.2717645839652
8.84422110552764,18.2997803026824
8.894472361809045,18.3276439963747
8.944723618090453,18.3553566687847
8.99497487437186,18.3829193172128
9.045226130653267,18.4103329325374
9.095477386934673,18.4375984992358
9.145728643216081,18.4647169954060
9.195979899497488,18.4916893927880
9.246231155778895,18.5185166567864
9.296482412060302,18.5451997464932
9.34673366834171,18.5717396147110
9.396984924623116,18.5981372079765
9.447236180904524,18.6243934665844
9.49748743718593,18.6505093246118
9.547738693467338,18.6764857099433
9.597989949748744,18.7023235442956
9.648241206030152,18.7280237432433
9.698492462311558,18.7535872162443
9.748743718592966,18.7790148666662
9.798994974874372,18.8043075918126
9.84924623115578,18.8294662829499
9.899497487437186,18.8544918253339
9.949748743718594,18.8793850982372
10.0,18.9041469749771
