v_0,energy
0.0,12.969819186868559
0.05025125628140704,12.87967390280434
0.10050251256281408,12.955483577678265
0.15075376884422112,13.03002281533575
0.20100502512562815,13.107617577814912
0.2512562814070352,13.18121521783578
0.30150753768844224,13.257267814360773
0.35175879396984927,13.33255264666759
0.4020100502512563,13.4053967726403
0.45226130653266333,13.482703016002553
0.5025125628140704,13.555380701071522
0.5527638190954774,13.63503748605157
0.6030150753768845,13.707257922556357
0.6532663316582915,13.779850350295558
0.7035175879396985,13.854940367098184
0.7537688442211056,13.927601434819744
0.8040201005025126,14.002114374071601
0.8542713567839196,14.075663774230746
0.9045226130653267,14.149899000037214
0.9547738693467337,14.225254131612623
1.0050251256281408,14.29789018280957
1.0552763819095479,14.368587626680803
1.105527638190955,14.442119662284469
1.155778894472362,14.51814012517508
1.206030150753769,14.586222887603679
1.256281407035176,14.65968741581353
1.306532663316583,14.733493374300545
1.35678391959799,14.806350460773459
1.407035175879397,14.874128605833048
1.4572864321608041,14.945825112035331
1.5075376884422111,15.017239720874446
1.5577889447236182,15.09047270709462
1.6080402010050252,15.163260304190368
1.6582914572864322,15.240301401251706
1.7085427135678393,15.30463862947998
1.7587939698492463,15.38160458275598
1.8090452261306533,15.449826363255829
1.8592964824120604,15.527970041034004
1.9095477386934674,15.592075546452007
1.9597989949748744,15.675189354490714
2.0100502512562817,15.737714764221899
2.0603015075376887,15.811051646233071
2.1105527638190957,15.881806075020346
2.1608040201005028,15.951858815809782
2.21105527638191,16.024228572539652
2.261306532663317,16.09516604400045
2.311557788944724,16.16841562382871
2.361809045226131,16.241160053692237
2.412060301507538,16.311259964811082
2.462311557788945,16.37772454455251
2.512562814070352,16.451986949501084
2.562814070351759,16.523516495704307
2.613065326633166,16.59305037084548
2.663316582914573,16.668873438705813
2.71356783919598,16.746390265338423
2.763819095477387,16.805842565741383
2.814070351758794,16.880425285352963
2.864321608040201,16.958240917865137
2.9145728643216082,17.02093772299234
2.9648241206030153,17.092181117256025
3.0150753768844223,17.16090686042395
3.0653266331658293,17.244901687019397
3.1155778894472363,17.318792132261667
3.1658291457286434,17.375227395614964
3.2160804020100504,17.443971093092294
3.2663316582914574,17.51370234749969
3.3165829145728645,17.588556394704476
3.3668341708542715,17.666514717899158
3.4170854271356785,17.721040810084254
3.4673366834170856,17.803719900768797
3.5175879396984926,17.869052117572316
3.5678391959798996,17.933386876436487
3.6180904522613067,18.017270044923375
3.6683417085427137,18.07259168635962
3.7185929648241207,18.149664256829244
3.7688442211055277,18.208452295076437
3.819095477386935,18.29808642870421
3.869346733668342,18.363472642150796
3.919597989949749,18.409147520228025
3.969849246231156,18.501694967773354
4.020100502512563,18.56126043571933
4.07035175879397,18.628503278603826
4.120603015075377,18.685828801669945
4.170854271356784,18.76445499620254
4.2211055276381915,18.839666202506606
4.2713567839195985,18.902562266137338
4.3216080402010055,18.96547549013654
4.371859296482413,19.03684826851899
4.42211055276382,19.107385578704807
4.472361809045227,19.15969402873443
4.522613065326634,19.23300049889437
4.572864321608041,19.301851363443003
4.623115577889448,19.36184274860785
4.673366834170855,19.429438598201987
4.723618090452262,19.500831383908668
4.773869346733669,19.558884924347062
4.824120603015076,19.634030707240942
4.874371859296483,19.69681451559325
4.92462311557789,19.792467339629592
4.974874371859297,19.859711495923232
5.025125628140704,19.920530359227264
5.075376884422111,19.98632479485131
5.125628140703518,20.023189573224517
5.175879396984925,20.117090049180845
5.226130653266332,20.153617164472507
5.276381909547739,20.245194419456805
5.326633165829146,20.331880856865364
5.376884422110553,20.36918110665743
5.42713567839196,20.434270756035122
5.477386934673367,20.496509589129367
5.527638190954774,20.563888414333537
5.577889447236181,20.61150609144306
5.628140703517588,20.693445808273932
5.678391959798995,20.747085337469652
5.728643216080402,20.795188370500572
5.778894472361809,20.87811992999313
5.8291457286432165,20.926476280853983
5.8793969849246235,21.004912897568406
5.9296482412060305,21.072321560261052
5.9798994974874375,21.136438649900334
6.030150753768845,21.17841461311035
6.080402010050252,21.264660450457367
6.130653266331659,21.30917482652495
6.180904522613066,21.381396120399785
6.231155778894473,21.45250729156418
6.28140703517588,21.511851834582604
6.331658291457287,21.58223338342373
6.381909547738694,21.625550578661215
6.432160804020101,21.64665572710524
6.482412060301508,21.774436755314717
6.532663316582915,21.816515057216233
6.582914572864322,21.862009762942144
6.633165829145729,21.899239635204637
6.683417085427136,21.99289312391579
6.733668341708543,22.033310815317165
6.78391959798995,22.11999597881996
6.834170854271357,22.154587096721475
6.884422110552764,22.212108928962184
6.934673366834171,22.288333361158223
6.984924623115578,22.365223809194163
7.035175879396985,22.423847081774344
7.085427135678392,22.46366854548434
7.135678391959799,22.521308704693105
7.185929648241206,22.58918982567674
7.236180904522613,22.642928791713647
7.28643216080402,22.706587264671494
7.336683417085427,22.772370619032657
7.386934673366834,22.83289253270088
7.437185929648241,22.892463615924534
7.4874371859296485,22.958604853599482
7.5376884422110555,23.023375170678065
7.5879396984924625,23.090481890112134
7.63819095477387,23.151126007733133
7.688442211055277,23.2037394052448
7.738693467336684,23.276118772001407
7.788944723618091,23.327168825447817
7.839195979899498,23.405601918843452
7.889447236180905,23.444532966318675
7.939698492462312,23.533136823847983
7.989949748743719,23.57903549773428
8.040201005025127,23.640199920152273
8.090452261306533,23.709642875393815
8.14070351758794,23.825721274364206
8.190954773869347,23.903093860444294
8.241206030150755,23.958872057944767
8.291457286432161,23.96835447422328
8.341708542713569,24.05876284322546
8.391959798994975,24.10560999539727
8.442211055276383,24.24652299452397
8.492462311557789,24.184252313412767
8.542713567839197,24.252054043077756
8.592964824120603,24.355181868417894
8.643216080402011,24.387404397672228
8.693467336683417,24.463055235573613
8.743718592964825,24.50239577950493
8.793969849246231,24.552100943703792
8.84422110552764,24.615199750399235
8.894472361809045,24.70618542767505
8.944723618090453,24.769285311691622
8.99497487437186,24.819290586644602
9.045226130653267,24.927276516384676
9.095477386934673,24.945426242439424
9.145728643216081,25.021895783202634
9.195979899497488,25.075207219280884
9.246231155778895,25.133314497280754
9.296482412060302,25.18481723740905
9.34673366834171,25.240947411590195
9.396984924623116,25.292865624907005
9.447236180904524,25.350890453215953
9.49748743718593,25.440310708926635
9.547738693467338,25.46043289291882
9.597989949748744,25.53149100288475
9.648241206030152,25.58482902279962
9.698492462311558,25.631370323386463
9.748743718592966,25.689595430388252
9.798994974874372,25.808104643777313
9.84924623115578,25.801164228036466
9.899497487437186,25.849341499817612
9.949748743718594,25.9583826038571
10.0,25.94668106066013
