alpha,energy
0.0,-0.474868631446236
0.010050251256281407,-0.464912500413148
0.020100502512562814,-0.455141061027609
0.03015075376884422,-0.445549330964088
0.04020100502512563,-0.436132671259095
0.05025125628140704,-0.426886701870255
0.06030150753768844,-0.417807252970263
0.07035175879396985,-0.408890334549442
0.08040201005025126,-0.400132116035062
0.09045226130653267,-0.391528911698242
0.10050251256281408,-0.383077169577559
0.11055276381909548,-0.374773462647716
0.12060301507537688,-0.366614481493686
0.1306532663316583,-0.358597028044045
0.1407035175879397,-0.350718010083982
0.15075376884422112,-0.342974436366273
0.16080402010050251,-0.335363412197615
0.1708542713567839,-0.327882135414555
0.18090452261306533,-0.320527892686969
0.19095477386934673,-0.313298056102817
0.20100502512562815,-0.306190079998638
0.21105527638190955,-0.299201498007874
0.22110552763819097,-0.292329920304567
0.23115577889447236,-0.285573031024057
0.24120603015075376,-0.278928585845366
0.25125628140703515,-0.272394409722370
0.2613065326633166,-0.265968394752675
0.271356783919598,-0.259648498174667
0.2814070351758794,-0.253432740484391
0.2914572864321608,-0.247319203664916
0.30150753768844224,-0.241306029521682
0.31155778894472363,-0.235391418118007
0.32160804020100503,-0.229573626305527
0.3316582914572864,-0.223850966344835
0.3417085427135678,-0.218221804611993
0.35175879396984927,-0.212684560386967
0.36180904522613067,-0.207237704720292
0.37185929648241206,-0.201879759374557
0.38190954773869346,-0.196609295837470
0.3919597989949749,-0.191424934403408
0.4020100502512563,-0.186325343320485
0.4120603015075377,-0.181309238000201
0.4221105527638191,-0.176375380286783
0.4321608040201005,-0.171522577783286
0.44221105527638194,-0.166749683231445
0.45226130653266333,-0.162055593942177
0.4623115577889447,-0.157439251273422
0.4723618090452261,-0.152899640151832
0.4824120603015075,-0.148435788634512
0.49246231155778897,-0.144046767506688
0.5025125628140703,-0.139731689910780
0.5125628140703518,-0.135489711001901
0.5226130653266332,-0.131320027624255
0.5326633165829145,-0.127221878002333
0.542713567839196,-0.123194541440106
0.5527638190954774,-0.119237338020718
0.5628140703517588,-0.115349628298330
0.5728643216080402,-0.111530812972953
0.5829145728643216,-0.107780332538166
0.592964824120603,-0.104097666890667
0.6030150753768845,-0.100482334889665
0.6130653266331658,-0.0969338938531131
0.6231155778894473,-0.0934519389769241
0.6331658291457286,-0.0900361026623894
0.6432160804020101,-0.0866860537363665
0.6532663316582915,-0.0834014965482228
0.6633165829145728,-0.0801821699272481
0.6733668341708543,-0.0770278459842890
0.6834170854271356,-0.0739383287418067
0.6934673366834171,-0.0709134525775226
0.7035175879396985,-0.0679530804683817
0.7135678391959799,-0.0650571020238333
0.7236180904522613,-0.0622254313005003
0.7336683417085427,-0.0594580043942638
0.7437185929648241,-0.0567547768106870
0.7537688442211056,-0.0541157206205885
0.7638190954773869,-0.0515408214144199
0.7738693467336684,-0.0490300750768649
0.7839195979899498,-0.0465834844116105
0.7939698492462312,-0.0442010556553409
0.8040201005025126,-0.0418827949293830
0.8140703517587939,-0.0396287046866940
0.8241206030150754,-0.0374387802205464
0.8341708542713568,-0.0353130063087834
0.8442211055276382,-0.0332513540732499
0.8542713567839196,-0.0312537781372884
0.864321608040201,-0.0293202141643626
0.8743718592964824,-0.0274505768572987
0.8844221105527639,-0.0256447584898119
0.8944723618090452,-0.0239026280295404
0.9045226130653267,-0.0222240308946240
0.914572864321608,-0.0206087893641028
0.9246231155778895,-0.0190567036365723
0.9346733668341709,-0.0175675535025122
0.9447236180904522,-0.0161411005647320
0.9547738693467337,-0.0147770909100137
0.964824120603015,-0.0134752581049515
0.9748743718592965,-0.0122353263617976
0.9849246231155779,-0.0110570136970026
0.9949748743718593,-0.00994003488662309
1.0050251256281406,-0.00888410400876786
1.015075376884422,-0.00788893635404960
1.0251256281407035,-0.00695424948359772
1.035175879396985,-0.00607976323060729
1.0452261306532664,-0.00526519849648269
1.0552763819095476,-0.00451027481238083
1.065326633165829,-0.00381470681077745
1.0753768844221105,-0.00317819979567698
1.085427135678392,-0.00260044382396487
1.0954773869346734,-0.00208110230011959
1.105527638190955,-0.00161978145283408
1.1155778894472361,-0.00121594680655838
1.1256281407035176,-0.000868724254800733
1.135678391959799,-0.000576516284900569
1.1457286432160805,-0.000336451760274664
1.155778894472362,-0.000143914190652492
1.1658291457286432,7.42854135428493e-6
1.1758793969849246,0.000124900524757412
1.185929648241206,0.000215752141706757
1.1959798994974875,0.000286320759749694
1.206030150753769,0.000341679648300925
1.2160804020100502,0.000385674341025123
1.2261306532663316,0.000421136820952556
1.236180904522613,0.000450129609237436
1.2462311557788945,0.000474155048018665
1.256281407035176,0.000494314906412401
1.2663316582914572,0.000511425656351701
1.2763819095477387,0.000526099762014945
1.2864321608040201,0.000538802569948032
1.2964824120603016,0.000549892184563665
1.306532663316583,0.000559647604036550
1.3165829145728642,0.000568288760986024
1.3266331658291457,0.000575990952810265
1.3366834170854272,0.000582895351843856
1.3467336683417086,0.000589116749135094
1.35678391959799,0.000594749325049610
1.3668341708542713,0.000599870996921145
1.3768844221105527,0.000604546729242801
1.3869346733668342,0.000608831079309982
1.3969849246231156,0.000612770173565712
1.407035175879397,0.000616403255796625
1.4170854271356783,0.000619763910257631
1.4271356783919598,0.000622881035742725
1.4371859296482412,0.000625779627194312
1.4472361809045227,0.000628481407364895
1.4572864321608041,0.000631005340744986
1.4673366834170853,0.000633368054369422
1.4773869346733668,0.000635584184453600
1.4874371859296482,0.000637666663562671
1.4974874371859297,0.000639626959801663
1.5075376884422111,0.000641475277063937
1.5175879396984926,0.000643220723493300
1.5276381909547738,0.000644871453860146
1.5376884422110553,0.000646434790419687
1.5477386934673367,0.000647917325933139
1.5577889447236182,0.000649325011834332
1.5678391959798996,0.000650663233970015
1.5778894472361809,0.000651936877901239
1.5879396984924623,0.000653150385399396
1.5979899497487438,0.000654307803486116
1.6080402010050252,0.000655412827135870
1.6180904522613067,0.000656468836573119
1.6281407035175879,0.000657478929942887
1.6381909547738693,0.000658445952008577
1.6482412060301508,0.000659372519427547
1.6582914572864322,0.000660261043069884
1.6683417085427137,0.000661113747774935
1.678391959798995,0.000661932689881427
1.6884422110552764,0.000662719772817602
1.6984924623115578,0.000663476760996722
1.7085427135678393,0.000664205292228463
1.7185929648241207,0.000664906888827391
1.728643216080402,0.000665582967575046
1.7386934673366834,0.000666234848670974
1.7487437185929648,0.000666863763790161
1.7587939698492463,0.000667470863349037
1.7688442211055277,0.000668057223069118
1.778894472361809,0.000668623849916014
1.7889447236180904,0.000669171687482023
1.7989949748743719,0.000669701620872025
1.8090452261306533,0.000670214481145248
1.8190954773869348,0.000670711049359225
1.829145728643216,0.000671192060256869
1.8391959798994975,0.000671658205632709
1.849246231155779,0.000672110137410467
1.8592964824120604,0.000672548470460315
1.8693467336683418,0.000672973785181117
1.879396984924623,0.000673386629870222
1.8894472361809045,0.000673787522900826
1.899497487437186,0.000674176954724935
1.9095477386934674,0.000674555389717931
1.9195979899497488,0.000674923267879176
1.92964824120603,0.000675281006401549
1.9396984924623115,0.000675629001121545
1.949748743718593,0.000675967627860431
1.9597989949748744,0.000676297243665808
1.9698492462311559,0.000676618187962141
1.9798994974874373,0.000676930783617899
1.9899497487437185,0.000677235337936323
2.0,0.000677532143576031
