distance,energy,energy_vqe
0.25,-0.3122699027007889,0.9779301844714972
0.2613065326633166,-0.3897844630811722,1.0055832727948244
0.27261306532663315,-0.4595433308070105,1.3708820690859436
0.28391959798994976,-0.5224854102285177,0.9667994056075023
0.2952261306532663,-0.5794081583349189,1.3842899981062948
0.3065326633165829,-0.6309932238343643,1.1176525210380643
0.3178391959798995,-0.6778266470006571,0.9865742725265602
0.3291457286432161,-0.7204149321135951,0.7521281882105968
0.34045226130653267,-0.7591979545174696,0.5824294344953027
0.3517587939698492,-0.7945594157956013,0.7629934010200472
0.3630653266331658,-0.826835381789703,-0.04656541764347688
0.3743718592964824,-0.8563213081285381,0.4229585926989414
0.385678391959799,-0.8832778623033548,0.11685021974118048
0.3969849246231156,-0.9079357803321964,0.4273871643152858
0.4082914572864322,-0.930499942871595,0.3009090940017045
0.41959798994974873,-0.9511528154587421,0.5435422359082515
0.43090452261306533,-0.9700573669803856,0.5791651215350311
0.44221105527638194,-0.9873595570089211,0.315267514935449
0.4535175879396985,-1.0031904645337477,0.1140906441166678
0.4648241206030151,-1.0176681165371888,0.221507679286982
0.47613065326633164,-1.0308990638553106,-0.18343471792209698
0.48743718592964824,-1.042979743098451,-0.10121455340202856
0.49874371859296485,-1.0539976565484335,-0.15203819158680765
0.5100502512562815,-1.0640323964874034,0.4798596786869944
0.521356783919598,-1.073156536036962,-0.13506986178277214
0.5326633165829147,-1.081436405058695,0.25668728947606445
0.5439698492462312,-1.0889327668034507,0.006958161132758267
0.5552763819095478,-1.0957014086586345,-0.4882777079099524
0.5665829145728644,-1.101793658417197,-0.2100033883359015
0.5778894472361809,-1.107256835896341,-0.5335174548097212
0.5891959798994975,-1.1121346484000316,0.018711365073512454
0.6005025125628141,-1.116467537395533,-0.35651882328888385
0.6118090452261307,-1.120292982819548,-0.3535793439931455
0.6231155778894473,-1.1236457706114646,-0.19133444045416015
0.6344221105527639,-1.1265582283657976,-0.26148435923662994
0.6457286432160805,-1.129060433381476,-0.7053721673258833
0.657035175879397,-1.1311803968486074,-0.3591493871126642
0.6683417085427136,-1.1329442274402095,-0.24480228276480964
0.6796482412060302,-1.1343762771577595,-0.28702784153647776
0.6909547738693467,-1.1354992719086858,-0.4256995667870085
0.7022613065326633,-1.1363344289633344,-0.4393413550842814
0.7135678391959799,-1.1369015631456283,-0.6619062327047412
0.7248743718592965,-1.1372191833501195,-0.45099676381321874
0.7361809045226131,-1.1373045807462643,-0.5020307476697136
0.7474874371859297,-1.137173909825346,-0.9090977025949387
0.7587939698492463,-1.136842263264247,-0.49023061038660043
0.7701005025125628,-1.1363237414214582,-0.5776794967669363
0.7814070351758794,-1.1356315171421358,-0.550267172877157
0.792713567839196,-1.134777896429158,-0.8285450756828956
0.8040201005025126,-1.1337743754343488,-0.40639267413691427
0.8153266331658292,-1.1326316941364887,-0.9139854456728977
0.8266331658291457,-1.1313598869997716,-0.6869106280405693
0.8379396984924623,-1.1299683308459483,-0.5701125633611608
0.8492462311557789,-1.1284657901228432,-0.5603226763756575
0.8605527638190955,-1.1268604597140972,-0.5957711788749775
0.8718592964824121,-1.1251600054028894,-0.7840396995104878
0.8831658291457287,-1.1233716020798843,-0.49986610730612335
0.8944723618090452,-1.1215019697684376,-0.5291974303876041
0.9057788944723618,-1.1195574075288621,-0.4477169733196288
0.9170854271356784,-1.1175438252963885,-0.6808956335440209
0.928391959798995,-1.1154667737038548,-0.5475190661775885
0.9396984924623116,-1.1133314719396854,-0.7284125746597749
0.9510050251256281,-1.1111428336929552,-0.7020640147341468
0.9623115577889447,-1.1089054912401468,-0.7640732358352765
0.9736180904522613,-1.1066238177321626,-0.4486216725011516
0.9849246231155779,-1.104301947744462,-0.49747696423031584
0.9962311557788945,-1.1019437961576584,-0.6380066632976635
1.007537688442211,-1.0995530754401361,-0.6968488890245005
1.0188442211055277,-1.0971333114084825,-0.5471380173361822
1.0301507537688441,-1.0946878575445165,-0.7972988954128104
1.041457286432161,-1.092219907951312,-0.9250392551021275
1.0527638190954773,-1.0897325090311045,-0.7270788809477428
1.064070351758794,-1.0872285699705229,-0.940228354910852
1.0753768844221105,-1.0847108721182923,-0.7210104902776224
1.0866834170854272,-1.082182077340156,-0.8969044642055207
1.0979899497487438,-1.0796447354346632,-0.8988179059150976
1.1092964824120604,-1.0771012906917417,-0.6373917959747651
1.120603015075377,-1.074554087673254,-0.7833937190613697
1.1319095477386933,-1.0720053762918322,-0.6988370620153053
1.1432160804020102,-1.0694573162610372,-0.7819597950316183
1.1545226130653266,-1.066911980985767,-0.7580928549079975
1.1658291457286434,-1.0643713609579633,-0.7607059868654549
1.1771356783919598,-1.0618373667182182,-0.6487949467564689
1.1884422110552764,-1.0593118314397363,-0.837838764884433
1.199748743718593,-1.0567965131863049,-0.766735153080014
1.2110552763819096,-1.0542930968918425,-0.7091666963381413
1.2223618090452262,-1.051803196104459,-0.9738341482495317
1.2336683417085428,-1.049328354533852,-0.8196202533134366
1.2449748743718594,-1.0468700474368808,-0.7713260462375047
1.256281407035176,-1.0444296828719357,-0.6719232071105763
1.2675879396984926,-1.0420086028494882,-0.8733336484692044
1.278894472361809,-1.0396080844024742,-0.7835899704089453
1.2902010050251256,-1.037229340597094,-0.6931962600947856
1.3015075376884422,-1.0348735215017315,-0.7601518091245698
1.3128140703517588,-1.0325417151290208,-0.7910335098443746
1.3241206030150754,-1.0302349483636133,-0.8305140659346806
1.335427135678392,-1.0279541878860652,-0.9524526755248187
1.3467336683417086,-1.0257003411016474,-0.9452375788656028
1.3580402010050252,-1.0234742570806172,-0.8500924730981438
1.3693467336683418,-1.021276727515528,-0.8649179459799854
1.3806532663316584,-1.0191084876997727,-0.925440687191061
1.391959798994975,-1.0169702175302122,-0.7974089643073328
1.4032663316582914,-1.01486254253609,-0.8750056111379225
1.414572864321608,-1.0127860349355222,-0.7946628936338227
1.4258793969849246,-1.0107412147202597,-0.7810585764108327
1.4371859296482412,-1.0087285507687176,-0.844312653133406
1.4484924623115578,-1.0067484619871199,-0.8365354789127817
1.4597989949748744,-1.0048013184779003,-0.8379922971377178
1.471105527638191,-1.002887442734436,-0.9184112469673308
1.4824120603015076,-1.001007110860986,-0.8800777870360319
1.4937185929648242,-0.9991605538162831,-0.6412381265407264
1.5050251256281408,-0.9973479586793874,-0.7538037380579055
1.5163316582914574,-0.9955694699360367,-0.8993841614719267
1.5276381909547738,-0.9938251907838258,-0.8703652802131487
1.5389447236180904,-0.9921151844544462,-0.7927288177894227
1.550251256281407,-0.9904394755509733,-0.8862951148956981
1.5615577889447236,-0.9887980513984053,-0.8316340961451202
1.5728643216080402,-0.9871908634054956,-0.8730923744498611
1.5841708542713568,-0.9856178284358675,-0.937520749310845
1.5954773869346734,-0.984078830186405,-0.865350330213597
1.60678391959799,-0.9825737205708016,-0.8310282778863274
1.6180904522613067,-0.9811023211063226,-0.7843245757409518
1.6293969849246233,-0.9796644243015733,-0.9034044636838361
1.6407035175879396,-0.9782597950431928,-0.8071064313219274
1.6520100502512562,-0.9768881719793814,-0.8911719574623391
1.6633165829145728,-0.9755492688980343,-0.844065577824014
1.6746231155778895,-0.9742427760973851,-0.9075593266360777
1.685929648241206,-0.9729683617470184,-0.7959699176589294
1.6972361809045227,-0.9717256732370678,-0.7206873456551095
1.7085427135678393,-0.970514338513561,-0.7416343464956158
1.7198492462311559,-0.9693339673976642,-0.9188106876746425
1.7311557788944725,-0.9681841528869517,-0.8025483295843503
1.742462311557789,-0.9670644724365571,-0.8149114642125002
1.7537688442211057,-0.9659744892183004,-0.8643376617080778
1.765075376884422,-0.9649137533558807,-0.7973446056002942
1.7763819095477387,-0.9638818031343419,-0.753873400596583
1.7876884422110553,-0.962878166182058,-0.7736379891153156
1.7989949748743719,-0.9619023606236352,-0.9027998107837663
1.8103015075376885,-0.9609538962022157,-0.8098140643597647
1.821608040201005,-0.9600322753696469,-0.8596353379507795
1.8329145728643217,-0.9591369943434316,-0.9150176845238522
1.8442211055276383,-0.9582675441290648,-0.7510515782397856
1.855527638190955,-0.9574234115068684,-0.8916863149146727
1.8668341708542715,-0.9566040799823693,-0.8123612527627305
1.8781407035175879,-0.955809030699421,-0.7731554402146045
1.8894472361809045,-0.9550377433154256,-0.9408713196368452
1.900753768844221,-0.9542896968382023,-0.897622714330318
1.9120603015075377,-0.9535643704241541,-0.7822697871272815
1.9233668341708543,-0.9528612441374474,-0.864663909048022
1.934673366834171,-0.9521797996701122,-0.8213691142303816
1.9459798994974875,-0.9515195210231953,-0.7990099883850463
1.9572864321608041,-0.9508798951489619,-0.8644119173050044
1.9685929648241207,-0.9502604125546243,-0.7796674884966714
1.9798994974874373,-0.9496605678678183,-0.8547172249440251
1.991206030150754,-0.94907986036446,-0.7619920314826437
2.0025125628140703,-0.948517794459492,-0.8622324978439895
2.0138190954773867,-0.9479738801612754,-0.8435648623627716
2.0251256281407035,-0.947447633490368,-0.8553228264043816
2.0364321608040203,-0.9469385768635818,-0.6890801715556703
2.0477386934673367,-0.9464462394442343,-0.8894695172831728
2.059045226130653,-0.9459701574596295,-0.9450871703777424
2.07035175879397,-0.9455098744867013,-0.8804200806066541
2.0816582914572868,-0.9450649417070138,-0.8266062769297926
2.092964824120603,-0.9446349181322876,-0.8629922165964877
2.1042713567839195,-0.9442193708014596,-0.8273655649601933
2.1155778894472363,-0.9438178749506576,-0.7819102323027078
2.1268844221105527,-0.9434300141571126,-0.6914928655006517
2.1381909547738696,-0.9430553804583814,-0.8681090207377653
2.149497487437186,-0.942693574448038,-0.6919665791860862
2.1608040201005023,-0.9423442053490148,-0.9012038948915286
2.172110552763819,-0.9420068910659074,-0.8773837228487711
2.183417085427136,-0.9416812582174126,-0.8682155328594394
2.1947236180904524,-0.9413669421500168,-0.8276043602085825
2.2060301507537687,-0.9410635869342832,-0.8918625796213313
2.2173366834170856,-0.9407708453447042,-0.8288410087534713
2.2286432160804024,-0.9404883788243792,-0.9172594042728579
2.2399497487437188,-0.940215857435539,-0.9094561010101487
2.251256281407035,-0.9399529597970333,-0.9091348049964063
2.262562814070352,-0.9396993730098008,-0.808443874375561
2.2738693467336684,-0.9394547925713019,-0.8706181242641715
2.285175879396985,-0.9392189222799119,-0.8268951573044045
2.2964824120603016,-0.9389914741301661,-0.9062933902977264
2.307788944723618,-0.9387721681997934,-0.8581999354689656
2.319095477386935,-0.9385607325292828,-0.8973501659833476
2.330402010050251,-0.9383569029949717,-0.9273231488642069
2.341708542713568,-0.9381604231762439,-0.8834009763111135
2.3530150753768844,-0.9379710442176629,-0.8326094377653294
2.364321608040201,-0.9377885246867131,-0.7168443803632107
2.3756281407035176,-0.937612630427806,-0.8382830567129879
2.3869346733668344,-0.9374431344131651,-0.8758721367372633
2.398241206030151,-0.9372798165911513,-0.7540216690791715
2.4095477386934676,-0.9371224637326137,-0.6902723430864162
2.420854271356784,-0.936970869275702,-0.8440801761460455
2.4321608040201004,-0.9368248331696815,-0.9240812223653382
2.443467336683417,-0.936684161718145,-0.7310952502977808
2.4547738693467336,-0.9365486674220217,-0.8899145559349354
2.4660804020100504,-0.9364181688228332,-0.8509175477271262
2.477386934673367,-0.9362924903464174,-0.9282412575976844
2.4886934673366836,-0.9361714621475326,-0.806774967091775
2.5,-0.9360549199556067,-0.8538430359666309
