distance,energy,energy_vqe
0.25,-0.31226990270079025,-0.29006835393579955
0.2613065326633166,-0.3897844630811722,0.12971298687904254
0.27261306532663315,-0.4595433308070149,1.7896248357718143
0.28391959798994976,-0.5224854102285159,-0.4846950724571999
0.2952261306532663,-0.5794081583349291,0.2598865554201544
0.3065326633165829,-0.6309932238343638,-0.2891384025016037
0.3178391959798995,-0.6778266470006531,1.2870065183661228
0.3291457286432161,-0.7204149321136013,-0.6765689006012878
0.34045226130653267,-0.7591979545174705,0.07636727723478898
0.3517587939698492,-0.7945594157956031,-0.6280740794181139
0.3630653266331658,-0.8268353817896981,-0.07534379404976255
0.3743718592964824,-0.8563213081285412,1.3770198449046656
0.385678391959799,-0.8832778623033553,-0.08066182315224446
0.3969849246231156,-0.9079357803321884,-0.8982101097923567
0.4082914572864322,-0.9304999428715937,-0.6920772893602947
0.41959798994974873,-0.9511528154587408,-0.27055312825226907
0.43090452261306533,-0.9700573669803838,-0.23509552712549908
0.44221105527638194,-0.9873595570089198,-0.3635306615886902
0.4535175879396985,-1.0031904645337486,-0.5186763386835818
0.4648241206030151,-1.0176681165371937,-0.633055949656754
0.47613065326633164,-1.030899063855311,-0.6742001784916303
0.48743718592964824,-1.0429797430984533,-0.682624583129412
0.49874371859296485,-1.0539976565484317,-0.68450341368765
0.5100502512562815,-1.0640323964873946,-0.5025972904993543
0.521356783919598,-1.0731565360369637,-0.4783178849409653
0.5326633165829147,-1.0814364050586964,-0.4433703872869008
0.5439698492462312,-1.0889327668034592,-0.5608341939386373
0.5552763819095478,-1.095701408658627,-0.8663278886702118
0.5665829145728644,-1.1017936584171952,-1.0769558425408414
0.5778894472361809,-1.1072568358963415,-0.7817609251944051
0.5891959798994975,-1.1121346484000276,0.1453002717964923
0.6005025125628141,-1.1164675373955324,0.23422584242785638
0.6118090452261307,-1.1202929828195458,-0.9321197179426105
0.6231155778894473,-1.1236457706114622,-1.019090301076074
0.6344221105527639,-1.1265582283657918,-0.5837513379002585
0.6457286432160805,-1.1290604333814704,-0.8008826343807143
0.657035175879397,-1.1311803968486096,-1.1199314335347226
0.6683417085427136,-1.1329442274402095,0.13071306072539002
0.6796482412060302,-1.1343762771577557,-0.6656796097210222
0.6909547738693467,-1.1354992719086854,-0.9430088353524297
0.7022613065326633,-1.136334428963334,-0.6321289203975607
0.7135678391959799,-1.1369015631456296,-1.1399720477296884
0.7248743718592965,-1.1372191833501177,0.16309990366535332
0.7361809045226131,-1.1373045807462625,-1.0490724532146385
0.7474874371859297,-1.1371739098253464,-0.6577829368435011
0.7587939698492463,-1.1368422632642403,-1.0699150042968761
0.7701005025125628,-1.136323741421458,-0.06353943544304508
0.7814070351758794,-1.1356315171421345,-1.090281926586231
0.792713567839196,-1.1347778964291568,-0.6666102509785645
0.8040201005025126,-1.1337743754343497,-1.116057078742502
0.8153266331658292,-1.1326316941364867,-0.10300181433003375
0.8266331658291457,-1.1313598869997703,-0.979908808352748
0.8379396984924623,-1.1299683308459434,-0.9231558048462456
0.8492462311557789,-1.1284657901228419,-0.17404283962553213
0.8605527638190955,-1.1268604597140972,-1.08418936778639
0.8718592964824121,-1.1251600054028978,-0.7963829442138689
0.8831658291457287,-1.123371602079883,-0.26487112085259723
0.8944723618090452,-1.1215019697684343,-1.0791671697759748
0.9057788944723618,-1.119557407528859,-0.8405265730130026
0.9170854271356784,-1.1175438252963867,-0.15617848997846362
0.928391959798995,-1.1154667737038584,-0.9835031982663583
0.9396984924623116,-1.1133314719396847,-1.015933645616265
0.9510050251256281,-1.1111428336929483,-0.3875085029733858
0.9623115577889447,-1.1089054912401441,-0.7484588183371527
0.9736180904522613,-1.1066238177321592,-0.9189583087505355
0.9849246231155779,-1.1043019477444658,-1.045818434526345
0.9962311557788945,-1.1019437961576608,-0.8511983950153483
1.007537688442211,-1.0995530754401401,-0.20459358341848455
1.0188442211055277,-1.0971333114084834,-0.7226667853029136
1.0301507537688441,-1.0946878575445165,-0.8742262474048486
1.041457286432161,-1.0922199079513133,-1.0728765625505803
1.0527638190954773,-1.0897325090310988,-0.9521173284933327
1.064070351758794,-1.0872285699705198,-0.6026794615251286
1.0753768844221105,-1.084710872118296,-0.7028326136113023
1.0866834170854272,-1.0821820773401591,-0.23986660962060846
1.0979899497487438,-1.0796447354346632,-0.7839896291173745
1.1092964824120604,-1.0771012906917417,-0.8393475027548115
1.120603015075377,-1.0745540876732562,-1.007926326740335
1.1319095477386933,-1.0720053762918287,-1.0458879089102415
1.1432160804020102,-1.0694573162610377,-0.9844632434422574
1.1545226130653266,-1.0669119809857686,-0.9097792439226924
1.1658291457286434,-1.0643713609579606,-0.5815716136616291
1.1771356783919598,-1.0618373667182226,-0.7389113635115079
1.1884422110552764,-1.0593118314397318,-0.3042390612365204
1.199748743718593,-1.0567965131863044,-0.7070016110464138
1.2110552763819096,-1.0542930968918438,-0.4320570987290398
1.2223618090452262,-1.0518031961044567,-0.7682593349668455
1.2336683417085428,-1.049328354533856,-0.7236593117786724
1.2449748743718594,-1.0468700474368815,-0.946750990085756
1.256281407035176,-1.0444296828719317,-0.9987898731883149
1.2675879396984926,-1.0420086028494873,-0.9883644452570642
1.278894472361809,-1.039608084402477,-0.9664211389525525
1.2902010050251256,-1.0372293405970954,-0.8885867420160147
1.3015075376884422,-1.034873521501736,-0.8705875534975975
1.3128140703517588,-1.032541715129016,-0.7072607069495758
1.3241206030150754,-1.030234948363611,-0.7419135823075589
1.335427135678392,-1.0279541878860594,-0.41849939682758597
1.3467336683417086,-1.0257003411016505,-0.6912456061429807
1.3580402010050252,-1.0234742570806146,-0.3713602433150581
1.3693467336683418,-1.0212767275155301,-0.758525371593622
1.3806532663316584,-1.0191084876997727,-0.6074412477215001
1.391959798994975,-1.0169702175302129,-0.8734526340038664
1.4032663316582914,-1.0148625425360895,-0.9719277964010622
1.414572864321608,-1.012786034935527,-0.9509426790607314
1.4258793969849246,-1.0107412147202584,-0.8491708168875363
1.4371859296482412,-1.0087285507687187,-0.7858399293285301
1.4484924623115578,-1.0067484619871205,-0.7150718118020019
1.4597989949748744,-1.004801318477901,-0.3641021414989543
1.471105527638191,-1.0028874427344374,-0.6754476840350941
1.4824120603015076,-1.0010071108609877,-0.6124074188873148
1.4937185929648242,-0.9991605538162842,-0.9070066121125799
1.5050251256281408,-0.9973479586793905,-0.9452868577705911
1.5163316582914574,-0.9955694699360322,-0.8042896793874055
1.5276381909547738,-0.9938251907838223,-0.7120284435362294
1.5389447236180904,-0.9921151844544449,-0.42328968211773543
1.550251256281407,-0.9904394755509733,-0.7072025917449483
1.5615577889447236,-0.9887980513984057,-0.9150459844418305
1.5728643216080402,-0.9871908634054902,-0.8894766929343014
1.5841708542713568,-0.985617828435866,-0.7273804017347799
1.5954773869346734,-0.9840788301864045,-0.3930969596798402
1.60678391959799,-0.9825737205708018,-0.7642209262031097
1.6180904522613067,-0.9811023211063212,-0.9104991446921258
1.6293969849246233,-0.9796644243015751,-0.7733744280511405
1.6407035175879396,-0.9782597950431893,-0.6175540972172264
1.6520100502512562,-0.9768881719793836,-0.6328282743088016
1.6633165829145728,-0.9755492688980376,-0.9016459325802006
1.6746231155778895,-0.9742427760973884,-0.7346892972832129
1.685929648241206,-0.972968361747014,-0.44668880497264746
1.6972361809045227,-0.9717256732370683,-0.8770721408195918
1.7085427135678393,-0.970514338513563,-0.7760517660838174
1.7198492462311559,-0.9693339673976629,-0.439589435877948
1.7311557788944725,-0.9681841528869517,-0.8697214486260205
1.742462311557789,-0.9670644724365569,-0.744994534857278
1.7537688442211057,-0.9659744892183033,-0.5302158227294345
1.765075376884422,-0.9649137533558794,-0.8913334215651405
1.7763819095477387,-0.9638818031343412,-0.5951505871738456
1.7876884422110553,-0.9628781661820536,-0.7843794135033304
1.7989949748743719,-0.9619023606236392,-0.7131916906078182
1.8103015075376885,-0.9609538962022142,-0.7008019886394756
1.821608040201005,-0.9600322753696473,-0.7768608502489946
1.8329145728643217,-0.9591369943434318,-0.4177397084881796
1.8442211055276383,-0.9582675441290675,-0.8338649487617523
1.855527638190955,-0.9574234115068679,-0.5926612173759046
1.8668341708542715,-0.9566040799823695,-0.8825551007447691
1.8781407035175879,-0.9558090306994239,-0.44634717703304827
1.8894472361809045,-0.9550377433154269,-0.8156307473414246
1.900753768844221,-0.9542896968382021,-0.6094288431042255
1.9120603015075377,-0.9535643704241517,-0.7390360329587105
1.9233668341708543,-0.9528612441374459,-0.5905900232242945
1.934673366834171,-0.9521797996701151,-0.5967703240537919
1.9459798994974875,-0.9515195210231957,-0.7870354618126887
1.9572864321608041,-0.9508798951489632,-0.5608760675167622
1.9685929648241207,-0.9502604125546243,-0.814484353954247
1.9798994974874373,-0.9496605678678145,-0.6089629469950852
1.991206030150754,-0.9490798603644578,-0.5152910127615685
2.0025125628140703,-0.948517794459492,-0.8164165066122566
2.0138190954773867,-0.9479738801612736,-0.6661673834885553
2.0251256281407035,-0.9474476334903664,-0.6199772493422914
2.0364321608040203,-0.9469385768635794,-0.7927429841023188
2.0477386934673367,-0.9464462394442361,-0.666160098429214
2.059045226130653,-0.9459701574596349,-0.38771115718652355
2.07035175879397,-0.9455098744867004,-0.6317596181693569
2.0816582914572868,-0.9450649417070156,-0.8204263448800406
2.092964824120603,-0.9446349181322856,-0.6958680335647738
2.1042713567839195,-0.9442193708014593,-0.5704924343880882
2.1155778894472363,-0.9438178749506567,-0.6433158263456563
2.1268844221105527,-0.9434300141571099,-0.7343190836332877
2.1381909547738696,-0.9430553804583857,-0.8455851483589116
2.149497487437186,-0.9426935744480376,-0.6732292608153728
2.1608040201005023,-0.9423442053490161,-0.504186183930434
2.172110552763819,-0.9420068910659107,-0.37424868331277933
2.183417085427136,-0.9416812582174119,-0.44125362372528615
2.1947236180904524,-0.9413669421500162,-0.562587019979337
2.2060301507537687,-0.9410635869342823,-0.7117034312040869
2.2173366834170856,-0.9407708453447067,-0.7688104242303827
2.2286432160804024,-0.9404883788243816,-0.7787167193668656
2.2399497487437188,-0.9402158574355417,-0.7719534089654698
2.251256281407035,-0.9399529597970318,-0.7688736985009292
2.262562814070352,-0.9396993730098014,-0.7675259495830725
2.2738693467336684,-0.9394547925713026,-0.735809601550758
2.285175879396985,-0.9392189222799081,-0.734529414621618
2.2964824120603016,-0.9389914741301679,-0.7418135068274576
2.307788944723618,-0.9387721681997958,-0.7708482224981967
2.319095477386935,-0.93856073252928,-0.7785699718852739
2.330402010050251,-0.9383569029949694,-0.7599679143921376
2.341708542713568,-0.938160423176245,-0.7758211902947638
2.3530150753768844,-0.937971044217664,-0.6879898629492698
2.364321608040201,-0.9377885246867098,-0.6302726203272554
2.3756281407035176,-0.9376126304278055,-0.5257987155265408
2.3869346733668344,-0.9374431344131624,-0.3831300238275222
2.398241206030151,-0.9372798165911493,-0.4457200311232615
2.4095477386934676,-0.9371224637326134,-0.6061571695844461
2.420854271356784,-0.9369708692757024,-0.7889631531666912
2.4321608040201004,-0.9368248331696835,-0.8301117365027356
2.443467336683417,-0.9366841617181425,-0.6138735702541305
2.4547738693467336,-0.9365486674220215,-0.5153691967045594
2.4660804020100504,-0.9364181688228308,-0.5384599579943917
2.477386934673367,-0.9362924903464169,-0.6673393596917643
2.4886934673366836,-0.9361714621475334,-0.7483647319319557
2.5,-0.9360549199556054,-0.48663213445111303
