distance,energy,energy_vqe
0.25,-0.3122699027007938,-0.32061267927142323
0.2613065326633166,-0.3897844630811713,-0.4003004314151588
0.27261306532663315,-0.45954333080701315,-0.46900491177987225
0.28391959798994976,-0.522485410228511,-0.5320716295819963
0.2952261306532663,-0.5794081583349242,-0.5887543541752724
0.3065326633165829,-0.6309932238343638,-0.6409578965447766
0.3178391959798995,-0.6778266470006442,-0.685003707192914
0.3291457286432161,-0.7204149321136004,-0.7283432724771552
0.34045226130653267,-0.7591979545174745,-0.7694174788483317
0.3517587939698492,-0.7945594157956031,-0.8041107400753644
0.3630653266331658,-0.8268353817896985,-0.8348868095766515
0.3743718592964824,-0.8563213081285306,-0.8620596842885071
0.385678391959799,-0.8832778623033575,-0.8905684361260529
0.3969849246231156,-0.9079357803321941,-0.9145881533491753
0.4082914572864322,-0.9304999428715857,-0.9385303544225259
0.41959798994974873,-0.951152815458747,-0.9594303020985289
0.43090452261306533,-0.9700573669803847,-0.9770364091134447
0.44221105527638194,-0.9873595570089246,-0.9916433926907671
0.4535175879396985,-1.0031904645337535,-1.0114665692323024
0.4648241206030151,-1.0176681165371932,-1.0268960941620153
0.47613065326633164,-1.0308990638553106,-1.0392611273232029
0.48743718592964824,-1.0429797430984529,-1.05238023157818
0.49874371859296485,-1.0539976565484295,-1.0628926443087898
0.5100502512562815,-1.0640323964873972,-1.0720055301532332
0.521356783919598,-1.0731565360369628,-1.0825540768151671
0.5326633165829147,-1.0814364050586942,-1.0904483327327128
0.5439698492462312,-1.0889327668034583,-1.0978046894678974
0.5552763819095478,-1.095701408658631,-1.1046703384559047
0.5665829145728644,-1.1017936584172001,-1.1107838753485595
0.5778894472361809,-1.1072568358963344,-1.1166323804391767
0.5891959798994975,-1.112134648400028,-1.1198718312060723
0.6005025125628141,-1.116467537395535,-1.1243243621826198
0.6118090452261307,-1.1202929828195485,-1.126070151562248
0.6231155778894473,-1.1236457706114618,-1.1312292312474614
0.6344221105527639,-1.1265582283657958,-1.1339667829262021
0.6457286432160805,-1.1290604333814716,-1.134348992256019
0.657035175879397,-1.131180396848606,-1.1374894740867845
0.6683417085427136,-1.1329442274402113,-1.1344685346330672
0.6796482412060302,-1.134376277157756,-1.141780842855304
0.6909547738693467,-1.1354992719086863,-1.1352894206828967
0.7022613065326633,-1.136334428963334,-1.1415924294723512
0.7135678391959799,-1.136901563145627,-1.1447200695470312
0.7248743718592965,-1.1372191833501168,-1.1421313572371212
0.7361809045226131,-1.137304580746263,-1.144139191994629
0.7474874371859297,-1.137173909825345,-1.1350008236774203
0.7587939698492463,-1.136842263264246,-1.1351391459348434
0.7701005025125628,-1.136323741421458,-1.1346227450229467
0.7814070351758794,-1.1356315171421314,-1.13363949869838
0.792713567839196,-1.1347778964291566,-1.1326487183754221
0.8040201005025126,-1.133774375434348,-1.1341913107557682
0.8153266331658292,-1.1326316941364905,-1.1294515233717393
0.8266331658291457,-1.1313598869997725,-1.1307627509006126
0.8379396984924623,-1.1299683308459432,-1.1316981481583877
0.8492462311557789,-1.1284657901228414,-1.12619895454816
0.8605527638190955,-1.1268604597141,-1.1238699757601545
0.8718592964824121,-1.1251600054028912,-1.1246140519033432
0.8831658291457287,-1.1233716020798803,-1.1237086625712096
0.8944723618090452,-1.1215019697684343,-1.11812202891289
0.9057788944723618,-1.1195574075288626,-1.1184236774356724
0.9170854271356784,-1.1175438252963876,-1.1177247445827296
0.928391959798995,-1.115466773703853,-1.1143000374281495
0.9396984924623116,-1.1133314719396836,-1.11191708540511
0.9510050251256281,-1.111142833692951,-1.1114443225302857
0.9623115577889447,-1.108905491240149,-1.1075919029241335
0.9736180904522613,-1.1066238177321586,-1.1045633589077173
0.9849246231155779,-1.1043019477444609,-1.101286734258212
0.9962311557788945,-1.1019437961576617,-1.1005485365281344
1.007537688442211,-1.0995530754401375,-1.0985877261354062
1.0188442211055277,-1.0971333114084874,-1.096727267733184
1.0301507537688441,-1.0946878575445156,-1.0934740990771288
1.041457286432161,-1.0922199079513084,-1.0906591011028666
1.0527638190954773,-1.0897325090311076,-1.0869906685285367
1.064070351758794,-1.0872285699705198,-1.085886044747928
1.0753768844221105,-1.0847108721182945,-1.0834483592135231
1.0866834170854272,-1.0821820773401587,-1.0793485645502208
1.0979899497487438,-1.0796447354346588,-1.0735188497343244
1.1092964824120604,-1.0771012906917456,-1.0726144979652155
1.120603015075377,-1.0745540876732567,-1.0721167293759706
1.1319095477386933,-1.0720053762918291,-1.0707683029659893
1.1432160804020102,-1.0694573162610381,-1.0683590047121574
1.1545226130653266,-1.0669119809857708,-1.0667108328014436
1.1658291457286434,-1.0643713609579648,-1.0644763294462174
1.1771356783919598,-1.0618373667182197,-1.0619826772616763
1.1884422110552764,-1.059311831439738,-1.0606860352848744
1.199748743718593,-1.0567965131863044,-1.0564049835305171
1.2110552763819096,-1.054293096891843,-1.0476455435661574
1.2223618090452262,-1.051803196104458,-1.0513620999442947
1.2336683417085428,-1.0493283545338539,-1.045987911885962
1.2449748743718594,-1.046870047436881,-1.0488907929219153
1.256281407035176,-1.0444296828719295,-1.0459356681237797
1.2675879396984926,-1.0420086028494873,-1.0431236388116432
1.278894472361809,-1.039608084402475,-1.0403280022303492
1.2902010050251256,-1.0372293405970985,-1.0341296694051931
1.3015075376884422,-1.034873521501732,-1.0338862057094613
1.3128140703517588,-1.032541715129015,-1.0332972786849888
1.3241206030150754,-1.0302349483636126,-1.0299392680389303
1.335427135678392,-1.0279541878860625,-1.0287100302454983
1.3467336683417086,-1.0257003411016496,-1.0273491026349792
1.3580402010050252,-1.0234742570806143,-1.0229615357030126
1.3693467336683418,-1.0212767275155272,-1.0230942059286392
1.3806532663316584,-1.0191084876997718,-1.0201072747958309
1.391959798994975,-1.0169702175302089,-1.0142501990016686
1.4032663316582914,-1.0148625425360904,-1.0120548531937015
1.414572864321608,-1.0127860349355227,-1.0113767920548897
1.4258793969849246,-1.0107412147202575,-1.009606629404587
1.4371859296482412,-1.008728550768719,-1.0080540699408163
1.4484924623115578,-1.0067484619871203,-1.005799988591292
1.4597989949748744,-1.0048013184778988,-1.0034223031811833
1.471105527638191,-1.0028874427344392,-1.0015248256128748
1.4824120603015076,-1.0010071108609908,-1.0005905695431716
1.4937185929648242,-0.9991605538162811,-0.9960009645996661
1.5050251256281408,-0.9973479586793879,-0.9968797856968155
1.5163316582914574,-0.9955694699360365,-0.9949675188530573
1.5276381909547738,-0.9938251907838236,-0.9930381187584065
1.5389447236180904,-0.9921151844544458,-0.9920431868188493
1.550251256281407,-0.9904394755509729,-0.9904304688267984
1.5615577889447236,-0.9887980513984062,-0.9908076353919902
1.5728643216080402,-0.9871908634054933,-0.9881165224750132
1.5841708542713568,-0.9856178284358638,-0.9819810607783209
1.5954773869346734,-0.9840788301864025,-0.9866051403133083
1.60678391959799,-0.9825737205707996,-0.9841305437994159
1.6180904522613067,-0.9811023211063254,-0.9831880892644289
1.6293969849246233,-0.9796644243015724,-0.9817945689635206
1.6407035175879396,-0.9782597950431937,-0.9808572922337357
1.6520100502512562,-0.9768881719793854,-0.9811681448638103
1.6633165829145728,-0.9755492688980354,-0.9793781560874513
1.6746231155778895,-0.9742427760973844,-0.9772833626748914
1.685929648241206,-0.9729683617470197,-0.9771733368647133
1.6972361809045227,-0.9717256732370678,-0.9757077302623198
1.7085427135678393,-0.9705143385135616,-0.9743649667238666
1.7198492462311559,-0.9693339673976671,-0.9732530002673974
1.7311557788944725,-0.9681841528869515,-0.9715194312367668
1.742462311557789,-0.967064472436556,-0.971354783227437
1.7537688442211057,-0.9659744892183009,-0.9708890229592135
1.765075376884422,-0.96491375335588,-0.9676053640362525
1.7763819095477387,-0.9638818031343401,-0.9661848260659094
1.7876884422110553,-0.9628781661820545,-0.967369523610758
1.7989949748743719,-0.9619023606236377,-0.9656039624146655
1.8103015075376885,-0.9609538962022113,-0.9653305878538176
1.821608040201005,-0.9600322753696486,-0.9635333532227655
1.8329145728643217,-0.959136994343428,-0.9631491912662509
1.8442211055276383,-0.9582675441290648,-0.9609471057556082
1.855527638190955,-0.9574234115068673,-0.9607426421879003
1.8668341708542715,-0.9566040799823706,-0.9597169517300129
1.8781407035175879,-0.9558090306994224,-0.9590730259046171
1.8894472361809045,-0.9550377433154253,-0.9580992893624976
1.900753768844221,-0.9542896968382003,-0.9590154497184861
1.9120603015075377,-0.9535643704241559,-0.9541027156474249
1.9233668341708543,-0.9528612441374414,-0.9568624777444429
1.934673366834171,-0.9521797996701125,-0.9538720535254335
1.9459798994974875,-0.9515195210231959,-0.9524292107480374
1.9572864321608041,-0.9508798951489665,-0.9539144097963668
1.9685929648241207,-0.9502604125546212,-0.9528257232001285
1.9798994974874373,-0.9496605678678143,-0.9514127116280382
1.991206030150754,-0.9490798603644558,-0.9507591148735862
2.0025125628140703,-0.9485177944594918,-0.9504944925635233
2.0138190954773867,-0.9479738801612787,-0.9512916111268457
2.0251256281407035,-0.9474476334903669,-0.9509112010627673
2.0364321608040203,-0.9469385768635816,-0.9498482392459304
2.0477386934673367,-0.9464462394442341,-0.9497615878698658
2.059045226130653,-0.945970157459638,-0.9461530437297214
2.07035175879397,-0.9455098744866995,-0.9490880807822611
2.0816582914572868,-0.945064941707016,-0.9488670495550875
2.092964824120603,-0.9446349181322867,-0.9482541105930323
2.1042713567839195,-0.9442193708014593,-0.9455117028590972
2.1155778894472363,-0.9438178749506583,-0.9471173248497458
2.1268844221105527,-0.9434300141571073,-0.9455779627897078
2.1381909547738696,-0.943055380458385,-0.9458780557947117
2.149497487437186,-0.9426935744480383,-0.9463961422655618
2.1608040201005023,-0.942344205349015,-0.9442644622976253
2.172110552763819,-0.9420068910659121,-0.9446737406275745
2.183417085427136,-0.9416812582174092,-0.944744926616955
2.1947236180904524,-0.941366942150015,-0.9446279928446601
2.2060301507537687,-0.9410635869342816,-0.9405515444981225
2.2173366834170856,-0.9407708453447062,-0.9412823994890626
2.2286432160804024,-0.9404883788243799,-0.9403135981993751
2.2399497487437188,-0.9402158574355393,-0.9413589631803339
2.251256281407035,-0.9399529597970326,-0.9394534725226849
2.262562814070352,-0.9396993730097999,-0.9417217970420874
2.2738693467336684,-0.9394547925713015,-0.940618392997491
2.285175879396985,-0.9392189222799128,-0.940404127427467
2.2964824120603016,-0.9389914741301697,-0.9394584609047711
2.307788944723618,-0.9387721681997949,-0.9391876894698878
2.319095477386935,-0.9385607325292802,-0.9383738626961116
2.330402010050251,-0.9383569029949732,-0.9398857395993905
2.341708542713568,-0.938160423176245,-0.937261097122404
2.3530150753768844,-0.9379710442176633,-0.9366669655303731
2.364321608040201,-0.9377885246867149,-0.9376651988316159
2.3756281407035176,-0.9376126304278066,-0.9387496822924081
2.3869346733668344,-0.9374431344131613,-0.9375234237832102
2.398241206030151,-0.9372798165911507,-0.9382027311629897
2.4095477386934676,-0.9371224637326159,-0.9375316656034527
2.420854271356784,-0.9369708692757028,-0.9372313073542813
2.4321608040201004,-0.9368248331696819,-0.9371072388618736
2.443467336683417,-0.9366841617181407,-0.9370472125400444
2.4547738693467336,-0.936548667422019,-0.937956606574165
2.4660804020100504,-0.9364181688228326,-0.9375320415249984
2.477386934673367,-0.9362924903464174,-0.9371057454073917
2.4886934673366836,-0.9361714621475334,-0.9368509390246245
2.5,-0.9360549199556056,-0.9375852696345237
