alpha,energy
0.0,-0.4743854689127657
0.010050251256281407,-0.46481367565695564
0.020100502512562814,-0.4549081204110476
0.03015075376884422,-0.4452976833324191
0.04020100502512563,-0.4372093407803156
0.05025125628140704,-0.4263933475430182
0.06030150753768844,-0.4187393442565533
0.07035175879396985,-0.40860222723384787
0.08040201005025126,-0.3997414638892009
0.09045226130653267,-0.3907960097869313
0.10050251256281408,-0.38355511518377544
0.11055276381909548,-0.37424140529018635
0.12060301507537688,-0.3666029469858497
0.1306532663316583,-0.35803706457085616
0.1407035175879397,-0.3521309360774717
0.15075376884422112,-0.3444476134321139
0.16080402010050251,-0.3350741115522479
0.1708542713567839,-0.32727239500886585
0.18090452261306533,-0.32178067895227114
0.19095477386934673,-0.3135384822181505
0.20100502512562815,-0.30719124648840707
0.21105527638190955,-0.30018472604436375
0.22110552763819097,-0.29324695954530927
0.23115577889447236,-0.28620483589541273
0.24120603015075376,-0.2795456812595043
0.25125628140703515,-0.2733571932135359
0.2613065326633166,-0.26624137720968605
0.271356783919598,-0.2604176995616996
0.2814070351758794,-0.25374399966530387
0.2914572864321608,-0.24805546594547087
0.30150753768844224,-0.2419021142104064
0.31155778894472363,-0.23572067325052157
0.32160804020100503,-0.2301479452313489
0.3316582914572864,-0.22451982368728982
0.3417085427135678,-0.218481814560374
0.35175879396984927,-0.21289983080547098
0.36180904522613067,-0.20786601109045266
0.37185929648241206,-0.20218018596765355
0.38190954773869346,-0.19622029008445063
0.3919597989949749,-0.19205277700822457
0.4020100502512563,-0.18697839428410196
0.4120603015075377,-0.1597850949024182
0.4221105527638191,-0.17611036495843546
0.4321608040201005,-0.12198533291391404
0.44221105527638194,-0.16663346099127685
0.45226130653266333,-0.16212014395935134
0.4623115577889447,-0.15673552381673167
0.4723618090452261,-0.08202818859540409
0.4824120603015075,-0.06699297253479272
0.49246231155778897,-0.11612955959638849
0.5025125628140703,-0.09306565567882023
0.5125628140703518,-0.06587787873093022
0.5226130653266332,0.012575692981662107
0.5326633165829145,-0.05063983567631341
0.542713567839196,-0.12264518606569366
0.5527638190954774,-0.002927787771382669
0.5628140703517588,-0.026876379286409378
0.5728643216080402,-0.04661125486308291
0.5829145728643216,0.020867418975379963
0.592964824120603,-0.08207281005885272
0.6030150753768845,-0.0033034007615749626
0.6130653266331658,-0.058523183882039365
0.6231155778894473,-0.0931753746526745
0.6331658291457286,-0.08916009971625057
0.6432160804020101,-0.0864604341566867
0.6532663316582915,-0.08331930744266035
0.6633165829145728,-0.08004593088095797
0.6733668341708543,-0.07682214400821706
0.6834170854271356,-0.07377450043914226
0.6934673366834171,-0.07084022500412238
0.7035175879396985,-0.06771912470027326
0.7135678391959799,-0.0645863937915157
0.7236180904522613,-0.061720346557215845
0.7336683417085427,-0.05886422515919773
0.7437185929648241,-0.05616689848773763
0.7537688442211056,-0.053819491005315544
0.7638190954773869,-0.051030305940334815
0.7738693467336684,-0.04852336063991256
0.7839195979899498,-0.04556661615681357
0.7939698492462312,-0.043241662062922445
0.8040201005025126,-0.04075535252693464
0.8140703517587939,-0.038233981047050045
0.8241206030150754,-0.03602656462602727
0.8341708542713568,-0.034046237611799736
0.8442211055276382,-0.032060294958622976
0.8542713567839196,-0.02993561240511417
0.864321608040201,-0.02782974568964221
0.8743718592964824,-0.026003550203809747
0.8844221105527639,-0.02412405561688957
0.8944723618090452,-0.022537519812868084
0.9045226130653267,-0.02065803988015559
0.914572864321608,-0.019147276884340824
0.9246231155778895,-0.01770360653824149
0.9346733668341709,-0.0162737679308417
0.9447236180904522,-0.014870854260136582
0.9547738693467337,-0.01338049995387574
0.964824120603015,-0.01206470178954637
0.9748743718592965,-0.010910484969248735
0.9849246231155779,-0.009395780863497474
0.9949748743718593,-0.008662885863199998
1.0050251256281406,-0.007872317673709649
1.015075376884422,-0.0068111631444513
1.0251256281407035,-0.005513671851819118
1.035175879396985,-0.004655212948220523
1.0452261306532664,-0.003873324412916229
1.0552763819095476,-0.0030358003127207833
1.065326633165829,-0.0025891671727239335
1.0753768844221105,-0.001851880228032989
1.085427135678392,-0.0011567787528619317
1.0954773869346734,-0.0002969846218246451
1.105527638190955,0.0004560418207344072
1.1155778894472361,0.001119076363703774
1.1256281407035176,0.0019592515130810104
1.135678391959799,0.0025036495970873467
1.1457286432160805,0.0020075738846870687
1.155778894472362,0.0035114797733536954
1.1658291457286432,0.0029431022358051336
1.1758793969849246,0.003687668639481402
1.185929648241206,0.004076009342636902
1.1959798994974875,0.004884109818442186
1.206030150753769,0.003380448953005148
1.2160804020100502,0.005342086580493669
1.2261306532663316,0.004041265893232691
1.236180904522613,0.00719095942717763
1.2462311557788945,0.004051510989915681
1.256281407035176,0.008307957815776161
1.2663316582914572,0.008017045068371068
1.2763819095477387,0.00780908754350464
1.2864321608040201,0.005237698574904908
1.2964824120603016,0.010018060051403446
1.306532663316583,0.00989789755748414
1.3165829145728642,0.010471045733907955
1.3266331658291457,0.010913744397510595
1.3366834170854272,0.00604137043614148
1.3467336683417086,0.011919360221649621
1.35678391959799,0.011824598260824739
1.3668341708542713,0.010358594185619917
1.3768844221105527,0.010764238686323774
1.3869346733668342,0.006212055253770035
1.3969849246231156,0.009908044002962114
1.407035175879397,0.0137228069476592
1.4170854271356783,0.013654277712967696
1.4271356783919598,0.014041277778282069
1.4371859296482412,0.005998737280516781
1.4472361809045227,0.014446479605395947
1.4572864321608041,0.014825336821422274
1.4673366834170853,0.012081382697047843
1.4773869346733668,0.012805239133235634
1.4874371859296482,0.011057193455384324
1.4974874371859297,0.016630104468779668
1.5075376884422111,0.016853890610490162
1.5175879396984926,0.011198064700974935
1.5276381909547738,0.016162702775466043
1.5376884422110553,0.015183308595582954
1.5477386934673367,0.007033893138728607
1.5577889447236182,0.013570345090591112
1.5678391959798996,0.007484000092450365
1.5778894472361809,0.011466981487177905
1.5879396984924623,0.02027731108824128
1.5979899497487438,0.020143290170089628
1.6080402010050252,0.018516712369010264
1.6180904522613067,0.006994787372988805
1.6281407035175879,0.008666647105838426
1.6381909547738693,0.014839595284025824
1.6482412060301508,0.021069005011458978
1.6582914572864322,0.019006490347378252
1.6683417085427137,0.02014914412730343
1.678391959798995,0.019407185427533186
1.6884422110552764,0.01983736593038147
1.6984924623115578,0.012199287669979107
1.7085427135678393,0.015629553175232996
1.7185929648241207,0.022018126414725645
1.728643216080402,0.013317410444284045
1.7386934673366834,0.01775905138357747
1.7487437185929648,0.007359644177503222
1.7587939698492463,0.0076620865212015145
1.7688442211055277,0.021880340903945156
1.778894472361809,0.013572403484829975
1.7889447236180904,0.021458452689767035
1.7989949748743719,0.007564047954663453
1.8090452261306533,0.02342300152502179
1.8190954773869348,0.019691280074044113
1.829145728643216,0.02144795906422118
1.8391959798994975,0.01849696514918364
1.849246231155779,0.008788827934547255
1.8592964824120604,0.008551533395096626
1.8693467336683418,0.01946369745205575
1.879396984924623,0.007459017678153001
1.8894472361809045,0.007957958852621235
1.899497487437186,0.007689817975592477
1.9095477386934674,0.02048404895618795
1.9195979899497488,0.013590097687763343
1.92964824120603,0.006812073748754997
1.9396984924623115,0.021955519700431265
1.949748743718593,0.022648795841966177
1.9597989949748744,0.006484155074382628
1.9698492462311559,0.019833499280691457
1.9798994974874373,0.026097013739700865
1.9899497487437185,0.022871122595721414
2.0,0.021719369168996392
