alpha,energy
0.0,-0.48230649983435275
0.010050251256281407,-0.4724752404231783
0.020100502512562814,-0.4626970397762736
0.03015075376884422,-0.45266214838232344
0.04020100502512563,-0.4428492800521692
0.05025125628140704,-0.434062017859851
0.06030150753768844,-0.4262012892705536
0.07035175879396985,-0.41566576574750536
0.08040201005025126,-0.4096577623652403
0.09045226130653267,-0.4007720736045709
0.10050251256281408,-0.3920583255689026
0.11055276381909548,-0.3835846150750613
0.12060301507537688,-0.375033251692283
0.1306532663316583,-0.3666715973792974
0.1407035175879397,-0.35899882139372574
0.15075376884422112,-0.3514031016011782
0.16080402010050251,-0.3428683745132229
0.1708542713567839,-0.33535977222278546
0.18090452261306533,-0.32758128111691764
0.19095477386934673,-0.3205541171207505
0.20100502512562815,-0.3113572125646029
0.21105527638190955,-0.30656630838242044
0.22110552763819097,-0.2974059312782957
0.23115577889447236,-0.2905789609484443
0.24120603015075376,-0.2835667951359909
0.25125628140703515,-0.27411573129414524
0.2613065326633166,-0.2677533047102268
0.271356783919598,-0.2639616362504336
0.2814070351758794,-0.25482079500030963
0.2914572864321608,-0.2501944766384234
0.30150753768844224,-0.24267747919221538
0.31155778894472363,-0.23665914696913692
0.32160804020100503,-0.2306468751027007
0.3316582914572864,-0.22483896221395386
0.3417085427135678,-0.21920191534286135
0.35175879396984927,-0.21360970401399607
0.36180904522613067,-0.2081588157437315
0.37185929648241206,-0.20268210481798002
0.38190954773869346,-0.19821832117528002
0.3919597989949749,-0.1924536354591878
0.4020100502512563,-0.18792098170201213
0.4120603015075377,-0.18277549347936628
0.4221105527638191,-0.1777029887569647
0.4321608040201005,-0.1725981435930596
0.44221105527638194,-0.1679567568812921
0.45226130653266333,-0.16478870926323072
0.4623115577889447,-0.15988934581916883
0.4723618090452261,-0.15468316198513143
0.4824120603015075,-0.1504507958041827
0.49246231155778897,-0.14616367162062668
0.5025125628140703,-0.14164258054055406
0.5125628140703518,-0.1361368329134022
0.5226130653266332,-0.13195327285150932
0.5326633165829145,-0.12783082653805866
0.542713567839196,-0.1237683182042157
0.5527638190954774,-0.11976460004336666
0.5628140703517588,-0.11581855141107307
0.5728643216080402,-0.11192907805312699
0.5829145728643216,-0.10809511136039146
0.592964824120603,-0.10431560764919982
0.6030150753768845,-0.1005895474661707
0.6130653266331658,-0.0969159349163625
0.6231155778894473,-0.0932937970137634
0.6331658291457286,-0.08972218305316973
0.6432160804020101,-0.0862001640025637
0.6532663316582915,-0.08272683191515293
0.6633165829145728,-0.07930129936027773
0.6733668341708543,-0.07592269887244203
0.6834170854271356,-0.07259018241775725
0.6934673366834171,-0.0693029208771285
0.7035175879396985,-0.06606010354554936
0.7135678391959799,-0.06286093764689658
0.7236180904522613,-0.05970464786365305
0.7336683417085427,-0.056590475881010335
0.7437185929648241,-0.0535176799448287
0.7537688442211056,-0.05048553443295823
0.7638190954773869,-0.052555647387501125
0.7738693467336684,-0.05013825432749807
0.7839195979899498,-0.04681009330658715
0.7939698492462312,-0.04515562846463057
0.8040201005025126,-0.042953586683023265
0.8140703517587939,-0.040146827036434324
0.8241206030150754,-0.038093160272332484
0.8341708542713568,-0.036445939413222696
0.8442211055276382,-0.03338361985508391
0.8542713567839196,-0.03103498704674148
0.864321608040201,-0.029604706744805698
0.8743718592964824,-0.027096703059068587
0.8844221105527639,-0.02549822760966512
0.8944723618090452,-0.022913206947879336
0.9045226130653267,-0.020708843196975933
0.914572864321608,-0.020319893287670844
0.9246231155778895,-0.019080368453765692
0.9346733668341709,-0.01776704814641639
0.9447236180904522,-0.01709914828105476
0.9547738693467337,-0.01670955673301219
0.964824120603015,-0.014563350016957927
0.9748743718592965,-0.013709747931295662
0.9849246231155779,-0.011045509054387545
0.9949748743718593,-0.012226823510609823
1.0050251256281406,-0.012872291491563149
1.015075376884422,-0.010907825014408089
1.0251256281407035,-0.011213267956824738
1.035175879396985,-0.007883262005916759
1.0452261306532664,-0.0075001765747405545
1.0552763819095476,-0.00728371866864942
1.065326633165829,-0.00832038239722801
1.0753768844221105,-0.00862095719772604
1.085427135678392,-0.00573562576478844
1.0954773869346734,-0.004910378159684101
1.105527638190955,-0.004707258013578021
1.1155778894472361,-0.007638118794668663
1.1256281407035176,-0.0055677175083839615
1.135678391959799,-0.005138496870932226
1.1457286432160805,-0.0026845405801864514
1.155778894472362,-0.0036424248612250626
1.1658291457286432,-0.005847541888022197
1.1758793969849246,-0.002333634073650603
1.185929648241206,-0.0010024926910620288
1.1959798994974875,-0.00084054251969259
1.206030150753769,-0.0011602734123161524
1.2160804020100502,-0.0029631511364062767
1.2261306532663316,-0.0021809704678970986
1.236180904522613,-0.004186849571285687
1.2462311557788945,-0.004051838612868399
1.256281407035176,-0.001087384237920874
1.2663316582914572,-2.6163709101172366e-05
1.2763819095477387,-0.000616509817303449
1.2864321608040201,0.0009174173502923237
1.2964824120603016,-0.001571542151440486
1.306532663316583,0.0002527939391945974
1.3165829145728642,-0.0007080783662596392
1.3266331658291457,0.0009265107832123424
1.3366834170854272,0.0006993487839998079
1.3467336683417086,0.0007393144454760404
1.35678391959799,-0.0010306788895491402
1.3668341708542713,-0.000730821311427237
1.3768844221105527,0.0012017625264668114
1.3869346733668342,0.0007690550475597901
1.3969849246231156,0.0006891528825661621
1.407035175879397,-0.0002126217778275453
1.4170854271356783,-0.0007473626442280343
1.4271356783919598,0.00038486146567091254
1.4371859296482412,-0.0004767567347841818
1.4472361809045227,0.0007165227420674285
1.4572864321608041,-0.0007894508142018837
1.4673366834170853,0.0008994981269326502
1.4773869346733668,0.00028234702166872656
1.4874371859296482,0.0003168313095963728
1.4974874371859297,2.4110363684986136e-05
1.5075376884422111,-6.137136653336459e-07
1.5175879396984926,0.0009623418615749923
1.5276381909547738,0.0007327429127688193
1.5376884422110553,0.0006902925224287678
1.5477386934673367,-0.00025503003790030144
1.5577889447236182,0.0009636341853833272
1.5678391959798996,0.0012445990189285487
1.5778894472361809,0.0008176764409708439
1.5879396984924623,-0.0010593457511492133
1.5979899497487438,0.0008898072371289991
1.6080402010050252,0.001096942544194978
1.6180904522613067,9.095559298030178e-05
1.6281407035175879,-0.00045366330066163327
1.6381909547738693,0.0006900109715134274
1.6482412060301508,0.00014389979173889055
1.6582914572864322,0.0009171303162353048
1.6683417085427137,0.0007077662608057798
1.678391959798995,0.0010656504974167278
1.6884422110552764,0.0006135774327030899
1.6984924623115578,0.0010419018510676064
1.7085427135678393,0.0010283291488459756
1.7185929648241207,0.0004953933906690982
1.728643216080402,0.001017293750981856
1.7386934673366834,0.0012536475553526212
1.7487437185929648,0.0005871747300882346
1.7587939698492463,0.00047378466016550504
1.7688442211055277,0.0007329848810313632
1.778894472361809,0.0007270403640490498
1.7889447236180904,0.0009385653447219707
1.7989949748743719,0.00040843676347225425
1.8090452261306533,0.00037080451223029656
1.8190954773869348,0.0004951820576031577
1.829145728643216,0.0006912220058788702
1.8391959798994975,0.0013387167276640727
1.849246231155779,0.00015810175346951368
1.8592964824120604,0.0010262994368605935
1.8693467336683418,0.0005443048462413669
1.879396984924623,0.0008813011552095381
1.8894472361809045,0.00031337312938962774
1.899497487437186,0.0002530858138425282
1.9095477386934674,2.5759841056338922e-05
1.9195979899497488,0.000436416972996103
1.92964824120603,0.00019062272265805242
1.9396984924623115,0.0004963546643408821
1.949748743718593,-0.0005959136669555138
1.9597989949748744,-0.0007445725779486023
1.9698492462311559,0.0007301859997255407
1.9798994974874373,0.0004530835215785182
1.9899497487437185,-0.0007379811147709915
2.0,0.00039756901709324735
